"Time (s)","Voltage (V)"
-1.996875e-05,-0.37864535999999993
-1.9964750000000002e-05,-0.37195079999999997
-1.996075e-05,-0.27822695999999997
-1.995675e-05,-0.11086296
-1.995275e-05,0.08327928
-1.994875e-05,0.25399056000000003
-1.9944750000000002e-05,0.3644508
-1.994075e-05,0.3811872
-1.9936750000000002e-05,0.30754704
-1.993275e-05,0.15691944
-1.992875e-05,-0.03387552
-1.992475e-05,-0.2213232
-1.992075e-05,-0.34182527999999995
-1.9916750000000002e-05,-0.38199263999999994
-1.991275e-05,-0.33178343999999993
-1.990875e-05,-0.19454496
-1.990475e-05,-0.00375
-1.990075e-05,0.18369767999999997
-1.9896750000000002e-05,0.32428344
-1.989275e-05,0.38453448
-1.988875e-05,0.3477144
-1.988475e-05,0.22721232
-1.988075e-05,0.04645919999999999
-1.9876750000000002e-05,-0.14098848
-1.987275e-05,-0.29831063999999996
-1.9868750000000002e-05,-0.37864535999999993
-1.986475e-05,-0.36190895999999995
-1.986075e-05,-0.26149056
-1.985675e-05,-0.08408472
-1.985275e-05,0.11005751999999999
-1.9848750000000002e-05,0.27407424
-1.984475e-05,0.37114536
-1.984075e-05,0.37449264
-1.983675e-05,0.28746336
-1.983275e-05,0.13014119999999998
-1.9828750000000002e-05,-0.0706956
-1.982475e-05,-0.24475416
-1.982075e-05,-0.35521439999999993
-1.981675e-05,-0.38199263999999994
-1.981275e-05,-0.31169975999999994
-1.9808750000000002e-05,-0.16441944
-1.980475e-05,0.03307008
-1.9800750000000002e-05,0.21717047999999997
-1.979675e-05,0.34436712
-1.979275e-05,0.3811872
-1.978875e-05,0.330978
-1.978475e-05,0.19373951999999997
-1.9780750000000002e-05,0.0029445599999999997
-1.977675e-05,-0.18450312
-1.977275e-05,-0.32508887999999997
-1.976875e-05,-0.38199263999999994
-1.976475e-05,-0.34851983999999997
-1.9760750000000002e-05,-0.2213232
-1.975675e-05,-0.0372228
-1.975275e-05,0.15022487999999998
-1.974875e-05,0.30419976
-1.974475e-05,0.37783992
-1.9740750000000002e-05,0.36110352
-1.973675e-05,0.247296
-1.9732750000000002e-05,0.06989015999999999
-1.972875e-05,-0.12090479999999999
-1.972475e-05,-0.28157424
-1.972075e-05,-0.37529808
-1.971675e-05,-0.36525623999999995
-1.9712750000000002e-05,-0.27153239999999995
-1.970875e-05,-0.10082112
-1.970475e-05,0.08997383999999999
-1.970075e-05,0.26068512
-1.969675e-05,0.36779808
-1.9692750000000002e-05,0.37449264
-1.968875e-05,0.29081064
-1.968475e-05,0.13348848
-1.968075e-05,-0.06400104
-1.967675e-05,-0.23805959999999998
-1.9672750000000002e-05,-0.35521439999999993
-1.966875e-05,-0.37864535999999993
-1.9664750000000002e-05,-0.30835247999999993
-1.966075e-05,-0.1543776
-1.965675e-05,0.03307008
-1.965275e-05,0.21717047999999997
-1.964875e-05,0.34436712
-1.9644750000000002e-05,0.3811872
-1.964075e-05,0.32763072
-1.963675e-05,0.1803504
-1.963275e-05,-0.007097279999999999
-1.962875e-05,-0.19789224
-1.9624750000000002e-05,-0.33513071999999994
-1.962075e-05,-0.38199263999999994
-1.961675e-05,-0.33178343999999993
-1.961275e-05,-0.20458679999999999
-1.960875e-05,-0.01379184
-1.9604750000000002e-05,0.17365583999999998
-1.960075e-05,0.32093616
-1.9596750000000002e-05,0.3811872
-1.959275e-05,0.34436712
-1.958875e-05,0.22051775999999998
-1.958475e-05,0.04311192
-1.958075e-05,-0.14768304
-1.9576750000000002e-05,-0.30165791999999997
-1.957275e-05,-0.37864535999999993
-1.956875e-05,-0.35186712
-1.956475e-05,-0.24140688
-1.956075e-05,-0.06065376
-1.9556750000000002e-05,0.12679391999999998
-1.955275e-05,0.28746336
-1.954875e-05,0.37449264
-1.954475e-05,0.36110352
-1.954075e-05,0.26068512
-1.9536750000000002e-05,0.08662655999999999
-1.953275e-05,-0.11086296
-1.9528750000000002e-05,-0.28157424
-1.952475e-05,-0.36860351999999996
-1.952075e-05,-0.37195079999999997
-1.9516750000000002e-05,-0.27153239999999995
-1.951275e-05,-0.10751568
-1.9508750000000002e-05,0.08997383999999999
-1.950475e-05,0.2640324
-1.950075e-05,0.3644508
-1.949675e-05,0.36779808
-1.949275e-05,0.28746336
-1.9488750000000002e-05,0.12679391999999998
-1.948475e-05,-0.06734832
-1.948075e-05,-0.24810143999999998
-1.947675e-05,-0.35186712
-1.947275e-05,-0.37864535999999993
-1.9468750000000002e-05,-0.29496335999999995
-1.946475e-05,-0.14098848
-1.946075e-05,0.053153759999999994
-1.945675e-05,0.23725416
-1.945275e-05,0.35106168
-1.9448750000000002e-05,0.37449264
-1.944475e-05,0.30419976
-1.9440750000000002e-05,0.15691944
-1.943675e-05,-0.0372228
-1.943275e-05,-0.2213232
-1.942875e-05,-0.34517255999999996
-1.942475e-05,-0.37864535999999993
-1.9420750000000002e-05,-0.31169975999999994
-1.941675e-05,-0.16776671999999998
-1.941275e-05,0.02302824
-1.940875e-05,0.20712863999999997
-1.940475e-05,0.33432528
-1.9400750000000002e-05,0.37449264
-1.939675e-05,0.32093616
-1.939275e-05,0.17700311999999999
-1.938875e-05,-0.010444559999999999
-1.938475e-05,-0.20123951999999998
-1.9380750000000002e-05,-0.33513071999999994
-1.937675e-05,-0.37529808
-1.9372750000000002e-05,-0.32843616
-1.936875e-05,-0.19119767999999998
-1.936475e-05,0.0029445599999999997
-1.936075e-05,0.19373951999999997
-1.935675e-05,0.330978
-1.9352750000000002e-05,0.37449264
-1.934875e-05,0.33432528
-1.934475e-05,0.20043408
-1.934075e-05,0.0029445599999999997
-1.933675e-05,-0.18115583999999998
-1.9332750000000002e-05,-0.32174159999999996
-1.932875e-05,-0.37864535999999993
-1.932475e-05,-0.34182527999999995
-1.932075e-05,-0.20458679999999999
-1.931675e-05,-0.01379184
-1.9312750000000002e-05,0.17365583999999998
-1.930875e-05,0.32093616
-1.9304750000000002e-05,0.37449264
-1.930075e-05,0.33767256
-1.929675e-05,0.2138232
-1.929275e-05,0.02302824
-1.928875e-05,-0.171114
-1.9284750000000002e-05,-0.31169975999999994
-1.928075e-05,-0.37864535999999993
-1.927675e-05,-0.33847799999999995
-1.927275e-05,-0.21462863999999998
-1.926875e-05,-0.030528239999999998
-1.9264750000000002e-05,0.16026671999999997
-1.926075e-05,0.31089432
-1.925675e-05,0.37114536
-1.925275e-05,0.34436712
-1.924875e-05,0.22051775999999998
-1.9244750000000002e-05,0.03307008
-1.924075e-05,-0.16107216
-1.9236750000000002e-05,-0.31169975999999994
-1.923275e-05,-0.37529808
-1.922875e-05,-0.34517255999999996
-1.922475e-05,-0.21797592
-1.922075e-05,-0.03387552
-1.9216750000000002e-05,0.15691944
-1.921275e-05,0.30419976
-1.920875e-05,0.37783992
-1.920475e-05,0.34436712
-1.920075e-05,0.22386504
-1.9196750000000002e-05,0.039764640000000004
-1.919275e-05,-0.15103032
-1.918875e-05,-0.30165791999999997
-1.918475e-05,-0.37529808
-1.918075e-05,-0.34182527999999995
-1.9176750000000002e-05,-0.2213232
-1.917275e-05,-0.040570079999999994
-1.9168750000000002e-05,0.15022487999999998
-1.916475e-05,0.30085248
-1.916075e-05,0.37114536
-1.9156750000000003e-05,0.34436712
-1.915275e-05,0.22386504
-1.9148750000000002e-05,0.039764640000000004
-1.914475e-05,-0.15103032
-1.914075e-05,-0.30835247999999993
-1.913675e-05,-0.37195079999999997
-1.913275e-05,-0.34182527999999995
-1.9128750000000002e-05,-0.21797592
-1.912475e-05,-0.0372228
-1.912075e-05,0.15691944
-1.911675e-05,0.30419976
-1.911275e-05,0.37449264
-1.9108750000000002e-05,0.34101984
-1.910475e-05,0.21717047999999997
-1.9100750000000002e-05,0.03307008
-1.909675e-05,-0.16107216
-1.909275e-05,-0.31169975999999994
-1.9088750000000003e-05,-0.37529808
-1.908475e-05,-0.33847799999999995
-1.9080750000000002e-05,-0.21797592
-1.907675e-05,-0.030528239999999998
-1.907275e-05,0.16026671999999997
-1.906875e-05,0.30754704
-1.906475e-05,0.37449264
-1.9060750000000002e-05,0.330978
-1.905675e-05,0.21047591999999998
-1.905275e-05,0.02302824
-1.904875e-05,-0.16776671999999998
-1.904475e-05,-0.31169975999999994
-1.9040750000000002e-05,-0.37864535999999993
-1.903675e-05,-0.33513071999999994
-1.9032750000000002e-05,-0.20123951999999998
-1.902875e-05,-0.010444559999999999
-1.902475e-05,0.17700311999999999
-1.9020750000000002e-05,0.31758888
-1.901675e-05,0.37449264
-1.9012750000000002e-05,0.32763072
-1.900875e-05,0.19039224
-1.900475e-05,0.0029445599999999997
-1.900075e-05,-0.18450312
-1.899675e-05,-0.32508887999999997
-1.8992750000000002e-05,-0.37529808
-1.898875e-05,-0.32174159999999996
-1.898475e-05,-0.18450312
-1.898075e-05,0.00629184
-1.897675e-05,0.19373951999999997
-1.8972750000000002e-05,0.32763072
-1.896875e-05,0.37114536
-1.896475e-05,0.32093616
-1.896075e-05,0.17365583999999998
-1.895675e-05,-0.01379184
-1.8952750000000002e-05,-0.20458679999999999
-1.894875e-05,-0.33513071999999994
-1.8944750000000002e-05,-0.37195079999999997
-1.894075e-05,-0.30835247999999993
-1.893675e-05,-0.16441944
-1.893275e-05,0.029722799999999997
-1.892875e-05,0.21717047999999997
-1.8924750000000002e-05,0.34436712
-1.892075e-05,0.37449264
-1.891675e-05,0.30419976
-1.891275e-05,0.15022487999999998
-1.890875e-05,-0.04391736
-1.8904750000000002e-05,-0.22467047999999998
-1.890075e-05,-0.34517255999999996
-1.889675e-05,-0.36860351999999996
-1.889275e-05,-0.29161607999999994
-1.888875e-05,-0.1376412
-1.8884750000000002e-05,0.059848319999999997
-1.888075e-05,0.24060143999999997
-1.8876750000000002e-05,0.34436712
-1.887275e-05,0.36110352
-1.886875e-05,0.2807688
-1.886475e-05,0.12009935999999999
-1.886075e-05,-0.07739016
-1.8856750000000002e-05,-0.25144871999999996
-1.885275e-05,-0.35521439999999993
-1.884875e-05,-0.36190895999999995
-1.884475e-05,-0.27153239999999995
-1.884075e-05,-0.10751568
-1.8836750000000002e-05,0.09332112
-1.883275e-05,0.26737968
-1.882875e-05,0.35775624
-1.882475e-05,0.35440896
-1.882075e-05,0.25733784
-1.8816750000000002e-05,0.08327928
-1.881275e-05,-0.11421023999999999
-1.8808750000000002e-05,-0.28492152
-1.880475e-05,-0.36525623999999995
-1.880075e-05,-0.35186712
-1.879675e-05,-0.23805959999999998
-1.879275e-05,-0.06065376
-1.8788750000000002e-05,0.13348848
-1.878475e-05,0.29081064
-1.878075e-05,0.3644508
-1.877675e-05,0.34101984
-1.877275e-05,0.22386504
-1.8768750000000002e-05,0.039764640000000004
-1.876475e-05,-0.1543776
-1.876075e-05,-0.30165791999999997
-1.875675e-05,-0.36525623999999995
-1.875275e-05,-0.32843616
-1.8748750000000002e-05,-0.20123951999999998
-1.874475e-05,-0.01713912
-1.8740750000000002e-05,0.17700311999999999
-1.873675e-05,0.31758888
-1.873275e-05,0.3644508
-1.872875e-05,0.31758888
-1.872475e-05,0.18704495999999998
-1.8720750000000002e-05,-0.010444559999999999
-1.871675e-05,-0.19789224
-1.871275e-05,-0.33178343999999993
-1.870875e-05,-0.36860351999999996
-1.870475e-05,-0.30165791999999997
-1.8700750000000002e-05,-0.16107216
-1.869675e-05,0.036417359999999996
-1.869275e-05,0.21717047999999997
-1.868875e-05,0.33767256
-1.868475e-05,0.36110352
-1.8680750000000002e-05,0.28746336
-1.867675e-05,0.13683576
-1.8672750000000002e-05,-0.05730647999999999
-1.866875e-05,-0.23805959999999998
-1.866475e-05,-0.35186712
-1.866075e-05,-0.35856167999999994
-1.865675e-05,-0.27487967999999996
-1.8652750000000002e-05,-0.10751568
-1.864875e-05,0.08997383999999999
-1.864475e-05,0.25733784
-1.864075e-05,0.35440896
-1.863675e-05,0.35440896
-1.8632750000000002e-05,0.25399056000000003
-1.862875e-05,0.07993199999999999
-1.862475e-05,-0.12090479999999999
-1.862075e-05,-0.28492152
-1.861675e-05,-0.36190895999999995
-1.8612750000000002e-05,-0.34517255999999996
-1.860875e-05,-0.22801775999999999
-1.8604750000000002e-05,-0.05061191999999999
-1.860075e-05,0.15022487999999998
-1.859675e-05,0.2975052
-1.859275e-05,0.3644508
-1.858875e-05,0.330978
-1.8584750000000002e-05,0.20043408
-1.858075e-05,0.00963912
-1.857675e-05,-0.17446128
-1.857275e-05,-0.31504703999999994
-1.856875e-05,-0.36860351999999996
-1.8564750000000002e-05,-0.31839431999999995
-1.856075e-05,-0.171114
-1.855675e-05,0.01633368
-1.855275e-05,0.20712863999999997
-1.854875e-05,0.330978
-1.8544750000000002e-05,0.36110352
-1.854075e-05,0.29415792
-1.8536750000000002e-05,0.14018303999999998
-1.853275e-05,-0.0539592
-1.852875e-05,-0.23471232
-1.852475e-05,-0.34517255999999996
-1.852075e-05,-0.36190895999999995
-1.8516750000000002e-05,-0.27487967999999996
-1.851275e-05,-0.10082112
-1.850875e-05,0.08997383999999999
-1.850475e-05,0.2640324
-1.850075e-05,0.35775624
-1.8496750000000002e-05,0.3477144
-1.849275e-05,0.24394871999999998
-1.848875e-05,0.06654288
-1.848475e-05,-0.12759936
-1.848075e-05,-0.29161607999999994
-1.8476750000000002e-05,-0.36190895999999995
-1.847275e-05,-0.33847799999999995
-1.846875e-05,-0.21797592
-1.846475e-05,-0.027180959999999997
-1.846075e-05,0.16026671999999997
-1.845675e-05,0.30419976
-1.845275e-05,0.36110352
-1.8448750000000002e-05,0.31758888
-1.844475e-05,0.18704495999999998
-1.844075e-05,-0.010444559999999999
-1.843675e-05,-0.20123951999999998
-1.843275e-05,-0.32843616
-1.8428750000000002e-05,-0.36525623999999995
-1.842475e-05,-0.29496335999999995
-1.842075e-05,-0.14433576
-1.841675e-05,0.04980648
-1.841275e-05,0.23390687999999998
-1.8408750000000002e-05,0.34436712
-1.840475e-05,0.35775624
-1.840075e-05,0.27072696
-1.839675e-05,0.10671023999999998
-1.839275e-05,-0.09077928
-1.838875e-05,-0.26149056
-1.838475e-05,-0.35856167999999994
-1.8380750000000002e-05,-0.34851983999999997
-1.837675e-05,-0.23805959999999998
-1.837275e-05,-0.05730647999999999
-1.836875e-05,0.13683576
-1.836475e-05,0.29081064
-1.8360750000000002e-05,0.36110352
-1.835675e-05,0.330978
-1.835275e-05,0.20378136
-1.834875e-05,0.01633368
-1.834475e-05,-0.17780856
-1.8340750000000002e-05,-0.31839431999999995
-1.833675e-05,-0.36525623999999995
-1.833275e-05,-0.30835247999999993
-1.832875e-05,-0.16776671999999998
-1.832475e-05,0.02637552
-1.832075e-05,0.21717047999999997
-1.831675e-05,0.33767256
-1.8312750000000002e-05,0.3644508
-1.830875e-05,0.28411608
-1.830475e-05,0.12344664
-1.830075e-05,-0.07739016
-1.829675e-05,-0.25144871999999996
-1.8292750000000002e-05,-0.35186712
-1.828875e-05,-0.35521439999999993
-1.828475e-05,-0.24810143999999998
-1.828075e-05,-0.07404288
-1.827675e-05,0.12679391999999998
-1.8272750000000002e-05,0.28746336
-1.826875e-05,0.35775624
-1.826475e-05,0.330978
-1.826075e-05,0.20712863999999997
-1.825675e-05,0.019680959999999997
-1.825275e-05,-0.171114
-1.824875e-05,-0.31839431999999995
-1.8244750000000002e-05,-0.36525623999999995
-1.824075e-05,-0.31169975999999994
-1.823675e-05,-0.16441944
-1.823275e-05,0.029722799999999997
-1.822875e-05,0.21717047999999997
-1.8224750000000002e-05,0.33432528
-1.822075e-05,0.35775624
-1.821675e-05,0.27742152000000003
-1.821275e-05,0.12009935999999999
-1.820875e-05,-0.08073744
-1.8204750000000002e-05,-0.25144871999999996
-1.820075e-05,-0.35186712
-1.819675e-05,-0.34851983999999997
-1.819275e-05,-0.24140688
-1.818875e-05,-0.06400104
-1.818475e-05,0.13014119999999998
-1.818075e-05,0.29081064
-1.8176750000000002e-05,0.35775624
-1.817275e-05,0.32763072
-1.816875e-05,0.20043408
-1.8164750000000003e-05,0.00629184
-1.816075e-05,-0.18450312
-1.8156750000000002e-05,-0.31169975999999994
-1.815275e-05,-0.36190895999999995
-1.814875e-05,-0.30165791999999997
-1.814475e-05,-0.15103032
-1.814075e-05,0.04645919999999999
-1.8136750000000002e-05,0.22721232
-1.813275e-05,0.33767256
-1.812875e-05,0.35106168
-1.812475e-05,0.2640324
-1.812075e-05,0.09332112
-1.8116750000000002e-05,-0.09747383999999999
-1.811275e-05,-0.27153239999999995
-1.8108750000000002e-05,-0.35856167999999994
-1.810475e-05,-0.33847799999999995
-1.810075e-05,-0.21797592
-1.8096750000000003e-05,-0.040570079999999994
-1.809275e-05,0.15691944
-1.8088750000000002e-05,0.30085248
-1.808475e-05,0.36110352
-1.808075e-05,0.3142416
-1.807675e-05,0.17030856
-1.807275e-05,-0.0204864
-1.8068750000000002e-05,-0.20793408
-1.806475e-05,-0.33178343999999993
-1.806075e-05,-0.35521439999999993
-1.805675e-05,-0.28157424
-1.805275e-05,-0.11421023999999999
-1.804875e-05,0.07993199999999999
-1.804475e-05,0.25399056000000003
-1.8040750000000002e-05,0.35106168
-1.803675e-05,0.34436712
-1.803275e-05,0.24060143999999997
-1.8028750000000003e-05,0.05650104
-1.802475e-05,-0.1376412
-1.8020750000000002e-05,-0.29831063999999996
-1.801675e-05,-0.36190895999999995
-1.801275e-05,-0.32174159999999996
-1.800875e-05,-0.18115583999999998
-1.800475e-05,0.00629184
-1.8000750000000002e-05,0.19373951999999997
-1.799675e-05,0.32093616
-1.799275e-05,0.35775624
-1.798875e-05,0.2807688
-1.798475e-05,0.12344664
-1.798075e-05,-0.07404288
-1.797675e-05,-0.24810143999999998
-1.797275e-05,-0.34851983999999997
-1.796875e-05,-0.34517255999999996
-1.796475e-05,-0.24140688
-1.7960750000000002e-05,-0.06065376
-1.795675e-05,0.13348848
-1.7952750000000002e-05,0.29081064
-1.794875e-05,0.35775624
-1.794475e-05,0.32093616
-1.794075e-05,0.18704495999999998
-1.793675e-05,-0.00375
-1.7932750000000002e-05,-0.19789224
-1.792875e-05,-0.32508887999999997
-1.792475e-05,-0.35856167999999994
-1.792075e-05,-0.28492152
-1.791675e-05,-0.12759936
-1.791275e-05,0.06989015999999999
-1.790875e-05,0.25064328
-1.790475e-05,0.34436712
-1.790075e-05,0.34436712
-1.789675e-05,0.23390687999999998
-1.7892750000000002e-05,0.05650104
-1.788875e-05,-0.14098848
-1.7884750000000002e-05,-0.29161607999999994
-1.788075e-05,-0.35856167999999994
-1.787675e-05,-0.31839431999999995
-1.787275e-05,-0.18115583999999998
-1.786875e-05,0.012986399999999999
-1.7864750000000002e-05,0.20043408
-1.786075e-05,0.32093616
-1.785675e-05,0.35440896
-1.785275e-05,0.27407424
-1.784875e-05,0.11340479999999999
-1.784475e-05,-0.087432
-1.784075e-05,-0.25814328
-1.783675e-05,-0.35186712
-1.783275e-05,-0.34182527999999995
-1.782875e-05,-0.2213232
-1.7824750000000002e-05,-0.0372228
-1.782075e-05,0.15022487999999998
-1.7816750000000002e-05,0.30085248
-1.781275e-05,0.35440896
-1.780875e-05,0.30419976
-1.780475e-05,0.16696128
-1.780075e-05,-0.027180959999999997
-1.7796750000000002e-05,-0.21797592
-1.779275e-05,-0.33513071999999994
-1.778875e-05,-0.35186712
-1.778475e-05,-0.25814328
-1.778075e-05,-0.09077928
-1.7776750000000002e-05,0.10671023999999998
-1.777275e-05,0.26737968
-1.776875e-05,0.35106168
-1.776475e-05,0.32763072
-1.776075e-05,0.20378136
-1.7756750000000002e-05,0.01633368
-1.775275e-05,-0.17780856
-1.7748750000000002e-05,-0.31169975999999994
-1.774475e-05,-0.35856167999999994
-1.774075e-05,-0.29496335999999995
-1.773675e-05,-0.1376412
-1.773275e-05,0.059848319999999997
-1.7728750000000002e-05,0.24060143999999997
-1.772475e-05,0.34101984
-1.772075e-05,0.34436712
-1.771675e-05,0.24394871999999998
-1.771275e-05,0.059848319999999997
-1.7708750000000002e-05,-0.13429391999999998
-1.770475e-05,-0.29161607999999994
-1.770075e-05,-0.35856167999999994
-1.769675e-05,-0.31169975999999994
-1.769275e-05,-0.17446128
-1.7688750000000002e-05,0.01633368
-1.768475e-05,0.20043408
-1.7680750000000002e-05,0.32763072
-1.767675e-05,0.35106168
-1.767275e-05,0.26737968
-1.766875e-05,0.10336295999999999
-1.766475e-05,-0.09747383999999999
-1.7660750000000002e-05,-0.26483783999999994
-1.765675e-05,-0.35186712
-1.765275e-05,-0.32843616
-1.764875e-05,-0.20458679999999999
-1.764475e-05,-0.02383368
-1.7640750000000002e-05,0.17365583999999998
-1.763675e-05,0.31089432
-1.763275e-05,0.35440896
-1.762875e-05,0.29081064
-1.762475e-05,0.14018303999999998
-1.7620750000000002e-05,-0.06065376
-1.761675e-05,-0.24140688
-1.7612750000000002e-05,-0.34182527999999995
-1.760875e-05,-0.34182527999999995
-1.760475e-05,-0.23471232
